Wavelength (nm)	Reflectance
200	0.6408375
201	0.6226174
202	0.602805
203	0.5817164
204	0.5597803
205	0.5376063
206	0.5159316
207	0.495638
208	0.4776542
209	0.4629021
210	0.4521674
211	0.446082
212	0.4462349
213	0.4523695
214	0.4637287
215	0.4792384
216	0.4974214
217	0.5173422
218	0.5379822
219	0.5584997
220	0.5782498
221	0.5965768
222	0.6133814
223	0.6284461
224	0.641572
225	0.6527656
226	0.6619704
227	0.6693498
228	0.6749767
229	0.6788547
230	0.6811935
231	0.682169
232	0.6819752
233	0.6807187
234	0.6787233
235	0.6761159
236	0.6730102
237	0.6696065
238	0.6662907
239	0.6628114
240	0.6591646
241	0.6556601
242	0.6519466
243	0.6477549
244	0.6430127
245	0.637443
246	0.630969
247	0.6235697
248	0.6150014
249	0.6055831
250	0.595403
251	0.5845793
252	0.5733973
253	0.5620108
254	0.5507503
255	0.5398793
256	0.5297695
257	0.5208435
258	0.513183
259	0.5074057
260	0.5036007
261	0.501831
262	0.5005827
263	0.5012946
264	0.504293
265	0.5094367
266	0.5158174
267	0.523907
268	0.5328605
269	0.5430385
270	0.5536061
271	0.5640306
272	0.5745685
273	0.5847486
274	0.594381
275	0.6035033
276	0.6120866
277	0.6201951
278	0.6277704
279	0.6347913
280	0.6414406
281	0.6475652
282	0.6532429
283	0.6585429
284	0.6633691
285	0.6674879
286	0.6704916
287	0.6725917
288	0.6726523
289	0.6714086
290	0.668629
291	0.6650941
292	0.6609932
293	0.6566981
294	0.6523206
295	0.647948
296	0.643734
297	0.6395568
298	0.6354805
299	0.6315165
300	0.6275263
301	0.623504
302	0.6194541
303	0.6153888
304	0.6112074
305	0.6069235
306	0.6025066
307	0.5979584
308	0.5932861
309	0.5884944
310	0.5834968
311	0.5783856
312	0.5731013
313	0.567658
314	0.5620131
315	0.5561817
316	0.5501691
317	0.5439632
318	0.537585
319	0.5310038
320	0.5242331
321	0.5172584
322	0.5100731
323	0.5026904
324	0.4951733
325	0.4874997
326	0.4796313
327	0.4716282
328	0.4635232
329	0.4552865
330	0.4469479
331	0.4385585
332	0.4301159
333	0.4216326
334	0.41314
335	0.4047039
336	0.3963999
337	0.3881559
338	0.3800094
339	0.3720162
340	0.3642366
341	0.3567375
342	0.3494779
343	0.342522
344	0.335939
345	0.3297663
346	0.3240327
347	0.3187922
348	0.3140834
349	0.3099346
350	0.3063883
351	0.3034603
352	0.3012361
353	0.2997869
354	0.2990586
355	0.2990854
356	0.2997714
357	0.3011421
358	0.3031775
359	0.3055857
360	0.3084196
361	0.311466
362	0.314743
363	0.3180607
364	0.3212656
365	0.3243852
366	0.3271813
367	0.3298116
368	0.3321947
369	0.3345614
370	0.3366624
371	0.3388041
372	0.3408139
373	0.3428069
374	0.3446306
375	0.3463999
376	0.3481789
377	0.3498737
378	0.3517622
379	0.3537576
380	0.3558342
381	0.3579935
382	0.3601796
383	0.3624532
384	0.3648701
385	0.3672394
386	0.3698046
387	0.3723045
388	0.3748643
389	0.3774437
390	0.3799569
391	0.382586
392	0.3851033
393	0.3876681
394	0.3901975
395	0.3926427
396	0.3951655
397	0.3975607
398	0.3999412
399	0.4022584
400	0.4044547
401	0.4066712
402	0.4087568
403	0.4107879
404	0.412775
405	0.4146313
406	0.416396
407	0.4180384
408	0.4195816
409	0.4211424
410	0.422576
411	0.4239412
412	0.425247
413	0.4264286
414	0.4275648
415	0.4286089
416	0.4295334
417	0.4304339
418	0.4312219
419	0.431911
420	0.4325794
421	0.433135
422	0.4336094
423	0.434045
424	0.4343713
425	0.4346003
426	0.4347314
427	0.43476
428	0.4347236
429	0.4346267
430	0.4344307
431	0.4341742
432	0.4338572
433	0.433445
434	0.4329695
435	0.432434
436	0.4318114
437	0.4311253
438	0.4303802
439	0.4295452
440	0.4286404
441	0.4276846
442	0.4266456
443	0.4255387
444	0.4244035
445	0.4231873
446	0.4218894
447	0.4205408
448	0.4191162
449	0.4176165
450	0.4160707
451	0.4144562
452	0.4127668
453	0.4110329
454	0.4092554
455	0.4074087
456	0.4055046
457	0.4035788
458	0.4015874
459	0.3995312
460	0.397453
461	0.395331
462	0.3931486
463	0.3909149
464	0.3886361
465	0.3863007
466	0.3838993
467	0.381426
468	0.3788933
469	0.3763037
470	0.373688
471	0.37108
472	0.3684219
473	0.3657147
474	0.3629168
475	0.3600568
476	0.3571471
477	0.3542087
478	0.3513395
479	0.3484288
480	0.3454779
481	0.3424728
482	0.3394102
483	0.3363082
484	0.333168
485	0.330037
486	0.3268911
487	0.3237121
488	0.3205011
489	0.317276
490	0.314024
491	0.3107445
492	0.3074391
493	0.3041286
494	0.3007943
495	0.2974377
496	0.2940644
497	0.29072
498	0.2873583
499	0.2839807
500	0.2805866
501	0.2771732
502	0.2737475
503	0.2703111
504	0.2668673
505	0.2635025
506	0.2601157
507	0.2567256
508	0.2533336
509	0.2498684
510	0.2463938
511	0.2429209
512	0.2394511
513	0.2360388
514	0.2326568
515	0.2292832
516	0.2259364
517	0.2226059
518	0.2192952
519	0.2159986
520	0.2127176
521	0.2094384
522	0.2061836
523	0.2029495
524	0.1997375
525	0.1965494
526	0.1934043
527	0.1902869
528	0.1871974
529	0.184137
530	0.1811131
531	0.178149
532	0.1752179
533	0.1723209
534	0.1694594
535	0.1666597
536	0.163902
537	0.1611836
538	0.1585056
539	0.1558691
540	0.1532535
541	0.1506919
542	0.1481751
543	0.1457042
544	0.1432853
545	0.1409308
546	0.1386243
547	0.1363665
548	0.1341584
549	0.13199
550	0.1298597
551	0.1277835
552	0.1257622
553	0.1237963
554	0.1219187
555	0.1201244
556	0.1183835
557	0.1166959
558	0.1150622
559	0.1134755
560	0.1119388
561	0.1104594
562	0.1090375
563	0.1076733
564	0.1063734
565	0.105138
566	0.1039587
567	0.1028354
568	0.1017683
569	0.1007586
570	0.0998099
571	0.0989183
572	0.0980835
573	0.0973054
574	0.0965838
575	0.0959268
576	0.0953251
577	0.0947784
578	0.0942863
579	0.0938483
580	0.0934664
581	0.0931315
582	0.0928473
583	0.0926131
584	0.0924284
585	0.0922954
586	0.0922315
587	0.0922168
588	0.0922506
589	0.0923324
590	0.0924613
591	0.0926432
592	0.0928753
593	0.0931528
594	0.093475
595	0.0938411
596	0.0942503
597	0.0947074
598	0.0952062
599	0.0957456
600	0.0963248
601	0.0969294
602	0.0975715
603	0.0982503
604	0.0989646
605	0.0997136
606	0.1005112
607	0.1013423
608	0.1022065
609	0.1031043
610	0.1040329
611	0.1049756
612	0.1059471
613	0.1069465
614	0.1079771
615	0.109047
616	0.1101596
617	0.1112973
618	0.1124594
619	0.1136448
620	0.1148513
621	0.1160647
622	0.1172987
623	0.1185526
624	0.1198382
625	0.1211427
626	0.1224465
627	0.1237784
628	0.1251286
629	0.1264942
630	0.127878
631	0.1292775
632	0.1306904
633	0.132117
634	0.1335565
635	0.1350075
636	0.1364888
637	0.1379815
638	0.1394836
639	0.1409946
640	0.1425082
641	0.1440092
642	0.1455172
643	0.1470245
644	0.1485331
645	0.1500468
646	0.1515875
647	0.1531396
648	0.1546952
649	0.1562539
650	0.1578186
651	0.1593661
652	0.1609153
653	0.1624726
654	0.1640386
655	0.1656049
656	0.1671714
657	0.1687483
658	0.1703243
659	0.1718991
660	0.1734644
661	0.1750399
662	0.1766129
663	0.1781831
664	0.1797527
665	0.1813187
666	0.1828617
667	0.1844032
668	0.1859438
669	0.1874796
670	0.1890106
671	0.1905368
672	0.1920575
673	0.1935726
674	0.1950827
675	0.1965904
676	0.1980916
677	0.1995862
678	0.2010802
679	0.2025731
680	0.2040588
681	0.2055548
682	0.2070479
683	0.2085342
684	0.2100124
685	0.2114824
686	0.2129293
687	0.2143679
688	0.2157979
689	0.2172188
690	0.2186291
691	0.2200305
692	0.2214228
693	0.2228056
694	0.2241788
695	0.2255426
696	0.2268968
697	0.2282395
698	0.2295706
699	0.2308919
700	0.2322032
701	0.2335079
702	0.2348053
703	0.2360925
704	0.2373695
705	0.2386366
706	0.2398936
707	0.2411403
708	0.2423766
709	0.243597
710	0.2448024
711	0.2459971
712	0.2471812
713	0.2483648
714	0.2495493
715	0.2507231
716	0.2518862
717	0.2530441
718	0.2542014
719	0.2553479
720	0.2564838
721	0.257614
722	0.2587265
723	0.259828
724	0.2609188
725	0.2619986
726	0.2630624
727	0.2641151
728	0.2651569
729	0.2661879
730	0.2672162
731	0.2682308
732	0.2692348
733	0.2702281
734	0.2712144
735	0.2721959
736	0.2731667
737	0.274127
738	0.2750763
739	0.2760001
740	0.2769134
741	0.2778161
742	0.2787084
743	0.2795878
744	0.2804551
745	0.2813121
746	0.2821587
747	0.2829943
748	0.2838153
749	0.2846259
750	0.2854262
751	0.2862163
752	0.2870068
753	0.2877939
754	0.2885709
755	0.2893379
756	0.2900951
757	0.2908528
758	0.2916006
759	0.2923385
760	0.2930666
761	0.2937828
762	0.2944929
763	0.2951934
764	0.2958844
765	0.2965659
766	0.2972428
767	0.2979126
768	0.298573
769	0.2992241
770	0.299866
771	0.3004853
772	0.3010942
773	0.3016938
774	0.3022843
775	0.3028639
776	0.3034226
777	0.3039723
778	0.3045129
779	0.3050446
780	0.3055706
781	0.3060977
782	0.3066159
783	0.3071254
784	0.3076262
785	0.3081175
786	0.3085984
787	0.3090706
788	0.3095344
789	0.3099896
790	0.3104387
791	0.3108842
792	0.3113214
793	0.3117503
794	0.312171
795	0.3125805
796	0.3129736
797	0.3133586
798	0.3137356
799	0.3141045
800	0.3144641
